time,voltage
0.0,4.9999792187022924
5e-06,4.9998961974955165
1e-05,4.999730234087885
1.5000000000000002e-05,4.999481185978096
2e-05,4.999148958861793
2.5e-05,4.998733599857777
3.0000000000000004e-05,4.998235157446477
3.5000000000000004e-05,4.997653681468456
4e-05,4.996989223122897
4.5e-05,4.9962418349660815
5e-05,4.995411570909828
5.5e-05,4.994498486219915
6.000000000000001e-05,4.993502637514487
6.500000000000001e-05,4.992424082762431
7.000000000000001e-05,4.991262881281743
7.500000000000001e-05,4.990019093737855
8e-05,4.988692782141958
8.5e-05,4.987284009849294
9e-05,4.9857928415574255
9.5e-05,4.984219343304493
0.0001,4.982563582467436
0.000105,4.980825627760207
0.00011,4.979005549231956
0.000115,4.977103418265197
0.00012000000000000002,4.975119307573953
0.000125,4.973053291201874
0.00013000000000000002,4.970905444520344
0.000135,4.968675844226557
0.00014000000000000001,4.9663645683415805
0.000145,4.963971696208389
0.00015000000000000001,4.961497308489885
0.000155,4.958941487166893
0.00016,4.956304315536136
0.00016500000000000003,4.95358587820819
0.00017,4.950786261105414
0.00017500000000000003,4.947905551459865
0.00018,4.944943837811191
0.00018500000000000002,4.941901210004499
0.00019,4.938777759188209
0.00019500000000000002,4.935573577811882
0.0002,4.932288759624024
0.00020500000000000002,4.928923399669884
0.00021,4.925477594289217
0.00021500000000000002,4.921951441114032
0.00022,4.918345039066316
0.00022500000000000002,4.914658488355746
0.00023,4.910891890477374
0.00023500000000000002,4.907045348209292
0.00024000000000000003,4.903118965610278
0.00024500000000000005,4.899112848017426
0.00025,4.895027102043744
0.000255,4.8908618355757465
0.00026000000000000003,4.886617157771017
0.00026500000000000004,4.882293179055756
0.00027,4.877890011122304
0.000275,4.87340776692665
0.00028000000000000003,4.868846560685915
0.00028500000000000004,4.864206507875821
0.00029,4.859487725228136
0.000295,4.854690330728102
0.00030000000000000003,4.849814443611842
0.00030500000000000004,4.844860184363748
0.00031,4.839827674713849
0.000315,4.834717037635159
0.00032,4.829528397341012
0.00032500000000000004,4.824261879282365
0.00033000000000000005,4.818917610145092
0.000335,4.813495717847255
0.00034,4.807996331536359
0.00034500000000000004,4.802419581586586
0.00035000000000000005,4.796765599596004
0.000355,4.791034518383765
0.00036,4.785226471987286
0.00036500000000000004,4.779341595659399
0.00037000000000000005,4.773380025865495
0.000375,4.767341900280644
0.00038,4.761227357786692
0.00038500000000000003,4.755036538469347
0.00039000000000000005,4.748769583615243
0.000395,4.742426635708982
0.0004,4.736007838430169
0.00040500000000000003,4.72951333665041
0.00041000000000000005,4.722943276430311
0.00041500000000000006,4.716297805016446
0.00042,4.709577070838308
0.00042500000000000003,4.702781223505249
0.00043000000000000004,4.695910413803396
0.00043500000000000006,4.688964793692549
0.00044,4.681944516303067
0.00044500000000000003,4.674849735932721
0.00045000000000000004,4.667680608043549
0.00045500000000000006,4.66043728925868
0.00046,4.653119937359146
0.000465,4.645728711280669
0.00047000000000000004,4.6382637711104415
0.00047500000000000005,4.63072527808388
0.00048000000000000007,4.623113394581364
0.000485,4.615428284124962
0.0004900000000000001,4.607670111375131
0.000495,4.599839042127406
0.0005,4.591935243309068
0.000505,4.583958882975802
0.00051,4.575910130308328
0.000515,4.567789155609022
0.0005200000000000001,4.559596130298514
0.0005250000000000001,4.551331226912278
0.0005300000000000001,4.542994619097195
0.000535,4.534586481608106
0.00054,4.52610699030435
0.000545,4.517556322146274
0.00055,4.508934655191738
0.000555,4.500242168592602
0.0005600000000000001,4.49147904259119
0.0005650000000000001,4.482645458516742
0.0005700000000000001,4.47374159878185
0.0005750000000000001,4.46476764687888
0.00058,4.455723787376366
0.000585,4.44661020591541
0.00059,4.437427089206041
0.000595,4.428174625023574
0.0006000000000000001,4.418853002204949
0.0006050000000000001,4.409462410645051
0.0006100000000000001,4.400003041293021
0.0006150000000000001,4.390475086148546
0.00062,4.380878738258132
0.000625,4.371214191711368
0.00063,4.361481641637167
0.000635,4.351681284199998
0.00064,4.341813316596097
0.0006450000000000001,4.3318779370496685
0.0006500000000000001,4.321875344809066
0.0006550000000000001,4.311805740142963
0.0006600000000000001,4.301669324336499
0.000665,4.291466299687428
0.00067,4.281196869502232
0.000675,4.270861238092235
0.00068,4.260459610769696
0.0006850000000000001,4.249992193843883
0.0006900000000000001,4.239459194617141
0.0006950000000000001,4.228860821380942
0.0007000000000000001,4.218197283411916
0.000705,4.207468790967875
0.00071,4.196675555283817
0.000715,4.18581778856792
0.00072,4.1748957039975165
0.0007250000000000001,4.163909515715059
0.0007300000000000001,4.15285943882407
0.0007350000000000001,4.141745689385074
0.0007400000000000001,4.130568484411524
0.0007450000000000001,4.119328041865704
0.00075,4.108024580654629
0.000755,4.0966583206259175
0.00076,4.0852294825636655
0.0007650000000000001,4.073738288184293
0.0007700000000000001,4.062184960132389
0.0007750000000000001,4.050569721976534
0.0007800000000000001,4.038892798205115
0.0007850000000000001,4.027154414222125
0.00079,4.015354796342949
0.000795,4.003494171790136
0.0008,3.991572768689161
0.000805,3.9795908160641744
0.0008100000000000001,3.96754854383373
0.0008150000000000001,3.955446182806516
0.0008200000000000001,3.943283964677056
0.0008250000000000001,3.9310621220214106
0.0008300000000000001,3.91878088829286
0.000835,3.906440497817576
0.00084,3.894041185790281
0.000845,3.881583188269891
0.0008500000000000001,3.869066742175157
0.0008550000000000001,3.856492085280282
0.0008600000000000001,3.843859456210537
0.0008650000000000001,3.8311690944378536
0.0008700000000000001,3.818421240276413
0.000875,3.80561613487822
0.00088,3.792754020228671
0.000885,3.779835139142096
0.0008900000000000001,3.766859735257306
0.0008950000000000001,3.7538280530331183
0.0009000000000000001,3.7407403377438735
0.0009050000000000001,3.727596835474944
0.0009100000000000001,3.714397793118218
0.0009150000000000001,3.701143458367596
0.00092,3.687834079714453
0.000925,3.6744699064431066
0.00093,3.6610511886262582
0.0009350000000000001,3.64757817712044
0.0009400000000000001,3.634051123561437
0.0009450000000000001,3.620470280359712
0.0009500000000000001,3.606835900695806
0.0009550000000000001,3.593148238515736
0.0009600000000000001,3.5794075485263845
0.000965,3.5656140861908696
0.00097,3.551768107723913
0.0009750000000000001,3.5378698700871984
0.0009800000000000002,3.5239196309847114
0.000985,3.5099176488580754
0.00099,3.495864182881879
0.000995,3.481759492958989
0.001,3.4676038397158555
0.001005,3.4533974844978084
0.00101,3.4391406893643444
0.001015,3.424833717084402
0.00102,3.410476831131628
0.001025,3.396070295679638
0.00103,3.3816143755972594
0.0010350000000000001,3.3671093364437747
0.0010400000000000001,3.3525554444641523
0.0010450000000000001,3.3379529665842624
0.0010500000000000002,3.3233021704060937
0.0010550000000000002,3.308603324202955
0.0010600000000000002,3.293856696914669
0.0010650000000000002,3.2790625581427584
0.00107,3.2642211781456214
0.001075,3.2493328278337046
0.00108,3.2343977787646567
0.001085,3.2194163031384866
0.00109,3.2043886737927005
0.001095,3.1893151641974407
0.0011,3.174196048450612
0.001105,3.159031601273003
0.00111,3.143822098003392
0.001115,3.1285678145936533
0.0011200000000000001,3.113269027603854
0.0011250000000000001,3.097926014197341
0.0011300000000000001,3.0825390521358185
0.0011350000000000002,3.0671084197744234
0.0011400000000000002,3.051634396056791
0.0011450000000000002,3.036117260510109
0.0011500000000000002,3.0205572932401727
0.001155,3.0049547749264294
0.00116,2.989309986817008
0.001165,2.973623210723753
0.00117,2.957894729017249
0.001175,2.9421248246218323
0.00118,2.926313781010601
0.001185,2.910461882200421
0.00119,2.8945694127469146
0.001195,2.8786366577394564
0.0012000000000000001,2.8626639027961525
0.0012050000000000001,2.846651434058818
0.0012100000000000001,2.830599538187948
0.0012150000000000002,2.8145085023576804
0.0012200000000000002,2.7983786142507565
0.0012250000000000002,2.78221016205347
0.0012300000000000002,2.766003434450618
0.0012350000000000002,2.749758720620437
0.00124,2.7334763102295385
0.001245,2.7171564934278414
0.00125,2.700799560843493
0.001255,2.684405803577786
0.00126,2.667975513200077
0.001265,2.651508981742689
0.00127,2.635006501695818
0.001275,2.618468366002425
0.00128,2.601894868053133
0.0012850000000000001,2.5852863016811147
0.0012900000000000001,2.568642961156973
0.0012950000000000001,2.5519651411836213
0.0013000000000000002,2.535253136891153
0.0013050000000000002,2.5185072438317166
0.0013100000000000002,2.5017277579743737
0.0013150000000000002,2.484914975699964
0.0013200000000000002,2.468069193795956
0.001325,2.4511907094513044
0.00133,2.4342798202512936
0.001335,2.4173368241723816
0.00134,2.40036201957704
0.001345,2.3833557052085883
0.00135,2.3663181801860285
0.001355,2.349249743998871
0.00136,2.332150696501959
0.0013650000000000001,2.3150213379102915
0.0013700000000000001,2.2978619687938378
0.0013750000000000001,2.280672890072356
0.0013800000000000002,2.2634544030102
0.0013850000000000002,2.246206809211129
0.0013900000000000002,2.2289304106131147
0.0013950000000000002,2.211625509483139
0.0014000000000000002,2.1942924084119952
0.0014050000000000002,2.176931410309085
0.00141,2.1595428183972123
0.001415,2.142126936207369
0.00142,2.124684067573531
0.001425,2.1072145166274385
0.00143,2.0897185877933824
0.001435,2.0721965857829843
0.00144,2.0546488155899763
0.001445,2.0370755824849764
0.0014500000000000001,2.019477192010267
0.0014550000000000001,2.0018539499745645
0.0014600000000000001,1.9842061624477911
0.0014650000000000002,1.9665341357558477
0.0014700000000000002,1.9488381764753768
0.0014750000000000002,1.9311185914285325
0.0014800000000000002,1.913375687677744
0.0014850000000000002,1.89560977252048
0.0014900000000000002,1.8778211534840088
0.001495,1.86001013832016
0.0015,1.842177035000088
0.001505,1.824322151709025
0.00151,1.8064457968410428
0.001515,1.788548278993808
0.00152,1.7706299069633389
0.001525,1.7526909897387617
0.0015300000000000001,1.734731836497063
0.0015350000000000001,1.7167527565978484
0.0015400000000000001,1.698754059578093
0.0015450000000000001,1.6807360551468955
0.0015500000000000002,1.662699053180234
0.0015550000000000002,1.6446433637157154
0.0015600000000000002,1.6265692969473324
0.0015650000000000002,1.6084771632202146
0.0015700000000000002,1.5903672730253833
0.0015750000000000002,1.5722399369945024
0.00158,1.5540954658946355
0.001585,1.535934170622998
0.00159,1.5177563622017127
0.001595,1.4995623517725636
0.0016,1.481352450591753
0.001605,1.4631269700246583
0.00161,1.444886221540588
0.0016150000000000001,1.42663051670754
0.0016200000000000001,1.408360167186963
0.0016250000000000001,1.3900754847285135
0.0016300000000000002,1.3717767811648205
0.0016350000000000002,1.3534643684062446
0.0016400000000000002,1.335138558435645
0.0016450000000000002,1.3167996633031422
0.0016500000000000002,1.2984479951208885
0.0016550000000000002,1.280083866057832
0.0016600000000000002,1.2617075883344906
0.001665,1.2433194742177216
0.00167,1.224919836015496
0.001675,1.2065089860716744
0.00168,1.1880872367607838
0.001685,1.1696549004827987
0.00169,1.1512122896579224
0.0016950000000000001,1.13275971672137
0.0017000000000000001,1.1142974941181572
0.0017050000000000001,1.0958259342978875
0.0017100000000000001,1.077345349709545
0.0017150000000000002,1.0588560527962876
0.0017200000000000002,1.0403583559902445
0.0017250000000000002,1.0218525717073146
0.0017300000000000002,1.0033390123419714
0.0017350000000000002,0.9848179902620658
0.0017400000000000002,0.9662898178036368
0.0017450000000000002,0.9477548072657208
0.00175,0.9292132709051696
0.001755,0.9106655209314656
0.00176,0.8921118695015441
0.001765,0.8735526287146196
0.00177,0.8549881106070126
0.001775,0.8364186271469828
0.0017800000000000001,0.8178444902295645
0.0017850000000000001,0.7992660116714064
0.0017900000000000001,0.7806835032056155
0.0017950000000000002,0.7620972764766041
0.0018000000000000002,0.7435076430349413
0.0018050000000000002,0.72491491433221
0.0018100000000000002,0.7063194017158647
0.0018150000000000002,0.6877214164240978
0.0018200000000000002,0.6691212695807071
0.0018250000000000002,0.6505192721899692
0.0018300000000000002,0.6319157351315171
0.001835,0.6133109691552227
0.00184,0.5947052848760833
0.001845,0.5760989927691142
0.00185,0.5574924031642449
0.001855,0.5388858262412207
0.00186,0.52027957202451
0.0018650000000000001,0.5016739503782156
0.0018700000000000001,0.4830692710009918
0.0018750000000000001,0.464465843420967
0.0018800000000000002,0.4458639769906716
0.0018850000000000002,0.4272639808819711
0.0018900000000000002,0.4086661640810046
0.0018950000000000002,0.3900708353831292
0.0019000000000000002,0.3714783033878706
0.0019050000000000002,0.3528888764938784
0.0019100000000000002,0.3343028628938886
0.0019150000000000003,0.3157205705696904
0.0019200000000000003,0.2971423072871002
0.001925,0.2785683805909419
0.00193,0.2599990978000325
0.001935,0.2414347660021746
0.00194,0.2228756920491549
0.0019450000000000001,0.2043221825517493
0.0019500000000000001,0.1857745438747347
0.001955,0.1672330821319071
0.0019600000000000004,0.1486981031811065
0.001965,0.1301699126192484
0.00197,0.1116488157773622
0.001975,0.0931351177156371
0.00198,0.0746291232184735
0.0019850000000000002,0.0561311367895434
0.00199,0.0376414626468565
0.0019950000000000002,0.0191604047178339
0.002,0.0006882666343893
0.0020050000000000003,-0.0177746482719821
0.00201,-0.0362280369751085
0.0020150000000000003,-0.0546715967590373
0.00202,-0.0731050252229242
0.0020250000000000003,-0.0915280202859144
0.00203,-0.1099402801920164
0.0020350000000000004,-0.1283415035149667
0.00204,-0.1467313891630885
0.0020450000000000004,-0.1651096363841407
0.00205,-0.1834759447701594
0.002055,-0.201830014262292
0.00206,-0.2201715451556215
0.002065,-0.238500238103984
0.0020700000000000002,-0.256815794124777
0.002075,-0.2751179146037593
0.0020800000000000003,-0.2934063012998427
0.002085,-0.3116806563498748
0.0020900000000000003,-0.3299406822734129
0.002095,-0.3481860819774899
0.0021000000000000003,-0.3664165587613707
0.002105,-0.3846318163212998
0.0021100000000000003,-0.4028315587552398
0.002115,-0.4210154905676014
0.0021200000000000004,-0.439183316673964
0.002125,-0.4573347424057861
0.0021300000000000004,-0.4754694735151083
0.002135,-0.4935872161792453
0.00214,-0.5116876770054694
0.002145,-0.5297705630356838
0.00215,-0.5478355817510875
0.0021550000000000002,-0.5658824410768288
0.00216,-0.5839108493866509
0.0021650000000000003,-0.6019205155075262
0.00217,-0.6199111487242815
0.0021750000000000003,-0.6378824587842137
0.00218,-0.6558341559016938
0.0021850000000000003,-0.6737659507627629
0.00219,-0.6916775545297169
0.0021950000000000003,-0.7095686788456808
0.0022,-0.7274390358391731
0.0022050000000000004,-0.7452883381286606
0.00221,-0.7631162988271003
0.0022150000000000004,-0.7809226315464745
0.00222,-0.7987070504023113
0.002225,-0.8164692700181974
0.00223,-0.8342090055302792
0.002235,-0.8519259725917532
0.0022400000000000002,-0.8696198873773444
0.002245,-0.8872904665877761
0.0022500000000000003,-0.9049374274542265
0.002255,-0.9225604877427755
0.0022600000000000003,-0.94015936575884
0.002265,-0.9577337803515982
0.0022700000000000003,-0.9752834509184016
0.002275,-0.9928080974091776
0.0022800000000000003,-1.0103074403308188
0.002285,-1.0277812007515612
0.0022900000000000004,-1.0452291003053524
0.002295,-1.0626508611962069
0.0023000000000000004,-1.0800462062025484
0.002305,-1.097414858681544
0.00231,-1.1147565425734225
0.0023150000000000002,-1.1320709824057835
0.00232,-1.1493579032978951
0.0023250000000000002,-1.1666170309649753
0.00233,-1.1838480917224667
0.0023350000000000003,-1.2010508124902963
0.00234,-1.2182249207971232
0.0023450000000000003,-1.2353701447845742
0.00235,-1.2524862132114671
0.0023550000000000003,-1.2695728554580226
0.00236,-1.2866298015300617
0.0023650000000000003,-1.303656782063191
0.00237,-1.3206535283269794
0.0023750000000000004,-1.3376197722291154
0.00238,-1.3545552463195567
0.0023850000000000004,-1.371459683794665
0.00239,-1.3883328185013295
0.002395,-1.405174384941076
0.0024000000000000002,-1.4219841182741613
0.002405,-1.43876175432366
0.0024100000000000002,-1.4555070295795334
0.002415,-1.472219681202687
0.0024200000000000003,-1.4888994470290149
0.002425,-1.505546065573429
0.0024300000000000003,-1.5221592760338802
0.002435,-1.5387388182953583
0.0024400000000000003,-1.5552844329338855
0.002445,-1.5717958612204916
0.0024500000000000004,-1.5882728451251802
0.002455,-1.6047151273208762
0.0024600000000000004,-1.6211224511873632
0.002465,-1.6374945608152065
0.0024700000000000004,-1.65383120100966
0.002475,-1.6701321172945631
0.00248,-1.6863970559162211
0.0024850000000000002,-1.7026257638472713
0.00249,-1.718817988790537
0.0024950000000000003,-1.7349734791828657
0.0025,-1.7510919841989538
0.0025050000000000003,-1.767173253755158
0.00251,-1.7832170385132904
0.0025150000000000003,-1.7992230898844008
0.00252,-1.815191160032544
0.0025250000000000003,-1.831121001878533
0.00253,-1.84701236910368
0.0025350000000000004,-1.862865016153516
0.00254,-1.8786786982415025
0.0025450000000000004,-1.8944531713527275
0.00255,-1.910188192247584
0.0025550000000000004,-1.925883518465436
0.00256,-1.9415389083282693
0.002565,-1.9571541209443264
0.0025700000000000002,-1.9727289162117276
0.002575,-1.988263054822077
0.0025800000000000003,-2.003756298264053
0.002585,-2.019208408826985
0.0025900000000000003,-2.034619149604413
0.002595,-2.0499882844976334
0.0026000000000000003,-2.065315578219227
0.002605,-2.080600796296579
0.0026100000000000003,-2.0958437050753727
0.002615,-2.111044071723077
0.0026200000000000004,-2.1262016642324157
0.002625,-2.141316251424817
0.0026300000000000004,-2.1563876029538567
0.002635,-2.171415489308675
0.0026400000000000004,-2.186399681817386
0.002645,-2.201339952650468
0.00265,-2.21623607482414
0.0026550000000000002,-2.231087822203716
0.00266,-2.2458949695069528
0.0026650000000000003,-2.26065729230738
0.00267,-2.2753745670376047
0.0026750000000000003,-2.290046570992612
0.00268,-2.304673082333043
0.0026850000000000003,-2.31925388008846
0.00269,-2.333788744160591
0.0026950000000000003,-2.348277455326566
0.0027,-2.362719795242128
0.0027050000000000004,-2.3771155464448315
0.00271,-2.3914644923572275
0.0027150000000000004,-2.4057664172900304
0.00272,-2.420021106445265
0.0027250000000000004,-2.434228345919401
0.0027300000000000002,-2.4483879227064724
0.002735,-2.4624996247011737
0.0027400000000000002,-2.4765632407019478
0.002745,-2.4905785604140505
0.0027500000000000003,-2.504545374452604
0.002755,-2.518463474345628
0.0027600000000000003,-2.5323326525370566
0.002765,-2.546152702389745
0.0027700000000000003,-2.559923418188444
0.002775,-2.573644595142774
0.0027800000000000004,-2.587316029390171
0.002785,-2.600937517998822
0.0027900000000000004,-2.6145088589705803
0.002795,-2.628029851243864
0.0028000000000000004,-2.641500294696536
0.002805,-2.6549199901487746
0.0028100000000000004,-2.668288739365916
0.0028150000000000002,-2.681606345061285
0.00282,-2.6948726108990133
0.0028250000000000003,-2.7080873414968307
0.00283,-2.7212503424288457
0.0028350000000000003,-2.7343614202283044
0.00284,-2.747420382390341
0.0028450000000000003,-2.760427037374699
0.00285,-2.773381194608439
