time,voltage
0.0,0.0248755187582141
5e-06,0.0743786271736239
1e-05,0.1233879359169524
1.5000000000000002e-05,0.1719075456427493
2e-05,0.2199415243242118
2.5e-05,0.2674939075109094
3.0000000000000004e-05,0.314568698584481
3.5000000000000004e-05,0.3611698690123218
4e-05,0.4073013585992752
4.5e-05,0.4529670757373455
5e-05,0.498170897653446
5.5e-05,0.5429166706552003
6.000000000000001e-05,0.5872082103748087
6.500000000000001e-05,0.631049302010999
7.000000000000001e-05,0.6744437005690722
7.500000000000001e-05,0.7173951310990625
8e-05,0.7599072889320225
8.5e-05,0.801983839914452
9e-05,0.8436284206408815
9.5e-05,0.8848446386846274
0.0001,0.925636072826732
0.000105,0.9660062732831044
0.00011,1.0059587619298718
0.000115,1.045497032526963
0.00012,1.0846245509399293
0.000125,1.123344755360023
0.00013,1.1616610565225447
0.000135,1.1995768379234726
0.00014,1.23709545603439
0.000145,1.2742202405157186
0.00015,1.3109544944282798
0.000155,1.347301494443188
0.00016,1.383264491050094
0.000165,1.4188467087637917
0.00017,1.4540513463291982
0.000175,1.4888815769247234
0.00018,1.5233405483640392
0.000185,1.5574313832962596
0.00019,1.5911571794045514
0.000195,1.624521009603176
0.0002,1.657525922232988
0.000205,1.6901749412553926
0.00021,1.7224710664447749
0.000215,1.754417273579421
0.00022,1.7860165146309357
0.000225,1.8172717179521665
0.00023,1.8481857884636543
0.000235,1.878761607838616
0.00024,1.909002034686468
0.000245,1.9389099047349128
0.00025,1.968488031010592
0.000255,1.997739204018309
0.00026,2.026666191918856
0.000265,2.0552717407054315
0.00027,2.083558574378676
0.000275,2.111529395120326
0.00028,2.139186883465508
0.000285,2.166533698473672
0.00029,2.19357247789818
0.000295,2.220305838354564
0.0003,2.246736375487459
0.000305,2.2728666641362234
0.00031,2.2986992584992523
0.000315,2.324236692297005
0.00032,2.349481478933744
0.000325,2.3744361116580026
0.00033,2.3991030637217965
0.000335,2.423484788538573
0.00034,2.447583719839922
0.000345,2.471402271831059
0.00035,2.4949428393450748
0.000355,2.518207797995981
0.00036,2.541199504330544
0.000365,2.563920295978931
0.00037,2.5863724918041666
0.000375,2.608558392050413
0.00038,2.630480278490086
0.000385,2.652140414569814
0.00039,2.673541045555245
0.000395,2.694684398674717
0.0004,2.715572683261797
0.000405,2.7362080908966995
0.00041,2.756592795546592
0.000415,2.7767289537047963
0.00042,2.796618704528891
0.000425,2.816264169977734
0.00043,2.835667454947404
0.000435,2.8548306474060685
0.00044,2.8737558185277963
0.000445,2.892445022825315
0.00045,2.910900298281719
0.000455,2.929123666481154
0.00046,2.947117132738456
0.000465,2.9648826862277806
0.00047,2.982422300110225
0.000475,2.9997379316604302
0.00048,3.0168315223922018
0.000485,3.033704998183132
0.00049,3.050360269398249
0.000495,3.066799231012684
0.0005,3.0830237627333843
0.000505,3.09903572911986
0.00051,3.114836979703978
0.000515,3.1304293491088284
0.00052,3.1458146571666363
0.000525,3.160994709035758
0.00053,3.175971295316752
0.000535,3.190746192167536
0.00054,3.205321161417645
0.000545,3.219697950681577
0.00055,3.233878293471257
0.000555,3.247863909307611
0.00056,3.2616565038312646
0.000565,3.27525776891237
0.00057,3.288669382759566
0.000575,3.3018930100280817
0.00058,3.314930301926991
0.000585,3.32778289632562
0.00059,3.34045241785912
0.000595,3.3529404780332053
0.0006,3.365248675328075
0.000605,3.377378595301504
0.00061,3.3893318106911305
0.000615,3.401109881515943
0.00062,3.412714355176956
0.000625,3.424146766557103
0.00063,3.435408638120339
0.000635,3.446501480009966
0.00064,3.4574267901461786
0.000645,3.46818605432285
0.00065,3.478780746303547
0.000655,3.489212327916796
0.00066,3.499482249150596
0.000665,3.509591948246188
0.00067,3.5195428517910887
0.000675,3.529336374811385
0.00068,3.538973920863312
0.000685,3.5484568821240967
0.00069,3.557786639482102
0.000695,3.566964562626247
0.0007,3.5759920101347347
0.000705,3.5848703295630697
0.00071,3.593600857531393
0.000715,3.6021849198111235
0.00072,3.610623831410922
0.000725,3.618918896661968
0.00073,3.6270714093025807
0.000735,3.63508265256216
0.00074,3.642953899244473
0.000745,3.650686411810282
0.00075,3.658281442459329
0.000755,3.6657402332116615
0.00076,3.673064015988328
0.000765,3.680254012691439
0.00077,3.687311435283588
0.000775,3.694237485866654
0.00078,3.7010333567599902
0.000785,3.707700230577979
0.00079,3.714239280306989
0.000795,3.720651669381728
0.0008,3.7269385517609854
0.000805,3.733101072002784
0.00081,3.739140365338938
0.000815,3.745057557749026
0.00082,3.750853766033777
0.000825,3.756530097887886
0.00083,3.762087651972245
0.000835,3.767527517985616
0.00084,3.7728507767357335
0.000845,3.778058500209847
0.00085,3.7831517516447137
0.000855,3.788131585596026
0.00086,3.792999048007316
0.000865,3.7977551762782857
0.00087,3.802400999332629
0.000875,3.806937537685302
0.00088,3.8113658035092657
0.000885,3.815686800701709
0.00089,3.819901524949741
0.000895,3.8240109637955775
0.0009,3.8280160967012007
0.000905,3.8319178951125217
0.00091,3.835717322523028
0.000915,3.839415334536933
0.00092,3.8430128789318334
0.000925,3.846510895720866
0.00093,3.84991031721437
0.000935,3.85321206808108
0.00094,3.856417065408823
0.000945,3.85952621876474
0.00095,3.8625404302550375
0.000955,3.865460594584264
0.00096,3.868287599114117
0.000965,3.871022323921796
0.00097,3.8736656418578863
0.000975,3.8762184186037913
0.00098,3.878681512728709
0.000985,3.8810557757461663
0.00099,3.8833420521700974
0.000995,3.885541179570493
0.001,3.887653988628596
0.001005,3.8896813031916766
0.00101,3.891623940327365
0.001015,3.893482710377565
0.00102,3.895258417011933
0.001025,3.896951857280944
0.00103,3.8985638216685343
0.001035,3.9000950941443286
0.00104,3.901546452215463
0.001045,3.902918666977989
0.00105,3.904212503167881
0.001055,3.9054287192116353
0.00106,3.906568067276477
0.001065,3.907631293320162
0.00107,3.9086191371403993
0.001075,3.909532332423868
0.00108,3.91037160679486
0.001085,3.911137681863537
0.00109,3.9118312732738056
0.001095,3.912453090750808
0.0011,3.913003838148052
0.001105,3.913484213494159
0.00111,3.913894909039252
0.001115,3.9142366113009657
0.00112,3.914510001110104
0.001125,3.9147157536559374
0.00113,3.914854538531139
0.001135,3.9149270197763606
0.00114,3.914933855924473
0.001145,3.914875700044448
0.00115,3.914753199784886
0.001155,3.914566997417224
0.00116,3.914317729878576
0.001165,3.914006028814248
0.00117,3.9136325206199305
0.001175,3.913197826483531
0.00118,3.9127025624266976
0.001185,3.912147339346009
0.00119,3.9115327630538337
0.001195,3.910859434318877
0.0012,3.9101279489064056
0.001205,3.909338897618147
0.00121,3.9084928663318834
0.001215,3.9075904360407314
0.00122,3.9066321828921056
0.001225,3.905618678226385
0.00123,3.9045504886152655
0.001235,3.903428175899816
0.00124,3.902252297228229
0.001245,3.901023405093274
0.00125,3.8997420473694695
0.001255,3.898408767349934
0.00126,3.897024103782974
0.001265,3.895588590908363
0.00127,3.894102758493352
0.001275,3.892567131868375
0.00128,3.890982231962493
0.001285,3.8893485753385466
0.00129,3.887666674228035
0.001295,3.88593703656572
0.0013,3.884160166023953
0.001305,3.882336562046736
0.00131,3.8804667198835134
0.001315,3.878551130622692
0.00132,3.876590281224905
0.001325,3.8745846545560014
0.00133,3.872534729419792
0.001335,3.8704409805905176
0.00134,3.868303878845079
0.001345,3.866123890994994
0.00135,3.8639014799181264
0.001355,3.8616371045901343
0.00136,3.859331220115698
0.001365,3.85698427775949
0.00137,3.8545967249768887
0.001375,3.8521690054444746
0.00138,3.849701559090264
0.001385,3.8471948221237176
0.00139,3.844649227065501
0.001395,3.842065202777022
0.0014,3.839443174489726
0.001405,3.836783563834163
0.00141,3.834086788868824
0.001415,3.831353264108756
0.00142,3.828583400553939
0.001425,3.82577760571745
0.00143,3.822936283653397
0.001435,3.820059834984642
0.00144,3.817148656930291
0.001445,3.8142031433329824
0.00145,3.811223684685944
0.001455,3.8082106681598495
0.00146,3.8051644776294618
0.001465,3.802085493700052
0.00147,3.7989740937336256
0.001475,3.7958306518749376
0.00148,3.792655539077295
0.001485,3.789449123128165
0.00149,3.786211768674573
0.001495,3.782943837248306
0.0015,3.779645687290915
0.001505,3.7763176741785136
0.00151,3.7729601502463934
0.001515,3.769573464813435
0.00152,3.766157964206327
0.001525,3.762713991783596
0.00153,3.75924188795945
0.001535,3.755741990227429
0.00154,3.752214633183861
0.001545,3.748660148551155
0.00155,3.7450788652008815
0.001555,3.741471109176696
0.00156,3.7378372037170657
0.001565,3.734177469277822
0.00157,3.730492223554533
0.001575,3.726781781504702
0.00158,3.723046455369788
0.001585,3.7192865546970486
0.00159,3.7155023863612233
0.001595,3.7116942545860274
0.0016,3.707862460965493
0.001605,3.704007304485124
0.00161,3.700129081542904
0.001615,3.696228085970118
0.00162,3.692304609052027
0.001625,3.688358939548364
0.00163,3.6843913637136754
0.001635,3.6804021653175054
0.00164,3.676391625664418
0.001645,3.672360023613846
0.00165,3.668307635599811
0.001655,3.664234735650468
0.00166,3.660141595407492
0.001665,3.6560284841453305
0.00167,3.6518956687902873
0.001675,3.6477434139394576
0.00168,3.643571981879523
0.001685,3.639381632605381
0.00169,3.635172623838648
0.001695,3.630945211045998
0.0017,3.626699647457364
0.001705,3.622436184084
0.00171,3.618155069736384
0.001715,3.6138565510420015
0.00172,3.609540872462968
0.001725,3.605208276313525
0.00173,3.600859002777394
0.001735,3.5964932899249904
0.00174,3.5921113737305035
0.001745,3.587713488088841
0.00175,3.5832998648324392
0.001755,3.578870733747945
0.00176,3.5744263225927537
0.001765,3.5699668571114285
0.00177,3.565492561051982
0.001775,3.5610036561820366
0.00178,3.556500362304843
0.001785,3.5519828972751912
0.00179,3.5474514770151817
0.001795,3.542906315529869
0.0018,3.5383476249227988
0.001805,3.5337756154113995
0.00181,3.529190495342273
0.001815,3.52459247120635
0.00182,3.519981747653931
0.001825,3.5153585275096035
0.00183,3.510723011787049
0.001835,3.5060753997037297
0.00184,3.501415888695452
0.001845,3.4967446744308246
0.00185,3.492061950825595
0.001855,3.487367910056875
0.00186,3.482662742577257
0.001865,3.477946637128812
0.00187,3.473219780756979
0.001875,3.468482358824345
0.00188,3.4637345550243186
0.001885,3.458976551394689
0.00189,3.454208528331083
0.001895,3.449430664600313
0.0019,3.444643137353619
0.001905,3.439846122139804
0.00191,3.4350397929182725
0.001915,3.430224322071956
0.00192,3.4253998804201378
0.001925,3.420566637231191
0.00193,3.415724760235189
0.001935,3.41087441563644
0.00194,3.406015768125904
0.001945,3.401148980893531
0.00195,3.396274215640477
0.001955,3.391391632591249
0.00196,3.386501390505732
0.001965,3.381603646691129
0.00197,3.376698557013816
0.001975,3.3717862759110826
0.00198,3.3668669564028
0.001985,3.3619407501029794
0.00199,3.3570078072312506
0.001995,3.3520682766242444
0.002,3.347122305746882
0.002005,3.342170040703589
0.00201,3.3372116262493923
0.002015,3.332247205800964
0.00202,3.327276921447547
0.002025,3.322300913961816
0.00203,3.317319322810634
0.002035,3.3123322861657427
0.00204,3.3073399409143494
0.002045,3.302342422669642
0.00205,3.297339865781216
0.002055,3.292332403345421
0.00206,3.2873201672156225
0.002065,3.2823032880123817
0.00207,3.277281895133558
0.002075,3.2722561167643294
0.00208,3.2672260798871298
0.002085,3.262191910291517
0.00209,3.257153732583948
0.002095,3.252111670197492
0.0021,3.2470658454014547
0.002105,3.2420163793109342
0.00211,3.236963391896289
0.002115,3.231907001992548
0.00212,3.226847327308732
0.002125,3.221784484437104
0.00213,3.2167185888623546
0.002135,3.211649754970699
0.00214,3.206578096058915
0.002145,3.201503724343304
0.00215,3.1964267509685795
0.002155,3.191347286016686
0.00216,3.186265438515552
0.002165,3.181181316447764
0.00217,3.1760950267591816
0.002175,3.1710066753674786
0.00218,3.165916367170616
0.002185,3.160824206055249
0.00219,3.155730294905068
0.002195,3.1506347356090694
0.0022,3.145537629069768
0.002205,3.1404390752113334
0.00221,3.1353391729876745
0.002215,3.130238020390448
0.00222,3.1251357144570058
0.002225,3.120032351278289
0.00223,3.1149280260066443
0.002235,3.109822832863589
0.00224,3.1047168651475103
0.002245,3.0996102152412983
0.00225,3.0945029746199326
0.002255,3.0893952338579904
0.00226,3.084287082637108
0.002265,3.0791786097533778
0.00227,3.074069903124688
0.002275,3.068961049798001
0.00228,3.063852135956577
0.002285,3.058743246927137
0.00229,3.053634467186975
0.002295,3.048525880371004
0.0023,3.043417569278751
0.002305,3.0383096158813023
0.00231,3.03320210132818
0.002315,3.0280951059541747
0.00232,3.022988709286119
0.002325,3.017882990049608
0.00233,3.0127780261756687
0.002335,3.007673894807369
0.00234,3.0025706723063816
0.002345,2.997468434259493
0.00235,2.99236725548506
0.002355,2.987267210039414
0.00236,2.9821683712232154
0.002365,2.9770708115877578
0.00237,2.9719746029412213
0.002375,2.966879816354876
0.00238,2.9617865221692314
0.002385,2.956694790000149
0.00239,2.9516046887448946
0.002395,2.9465162865881407
0.0024,2.9414296510079345
0.002405,2.936344848781606
0.00241,2.931261945991631
0.002415,2.926181008031453
0.00242,2.9211020996112538
0.002425,2.916025284763677
0.00243,2.910950626849509
0.002435,2.905878188563313
0.00244,2.90080803193902
0.002445,2.895740218355471
0.00245,2.8906748085419194
0.002455,2.8856118625834863
0.00246,2.880551439926573
0.002465,2.875493599384231
0.00247,2.8704383991414906
0.002475,2.8653858967606416
0.00248,2.8603361491864763
0.002485,2.855289212751491
0.00249,2.850245143181042
0.002495,2.845203995598463
0.0025,2.840165824530143
0.002505,2.835130683910561
0.00251,2.8300986270872777
0.002515,2.825069706825898
0.00252,2.820043975314979
0.002525,2.815021484170912
0.00253,2.8100022844427555
0.002535,2.8049864266170363
0.00254,2.799973960622509
0.002545,2.794964935834877
0.00255,2.789959401081478
0.002555,2.784957404645929
0.00256,2.7799589942727376
0.002565,2.774964217171874
0.00257,2.7699731200233044
0.002575,2.764985748981494
0.00258,2.760002149679869
0.002585,2.7550223672352443
0.00259,2.7500464462522136
0.002595,2.7450744308275112
0.0026,2.7401063645543298
0.002605,2.7351422905266087
0.00261,2.7301822513432894
0.002615,2.725226289112531
0.00262,2.720274445455897
0.002625,2.7153267615125065
0.00263,2.7103832779431527
0.002635,2.705444034934388
0.00264,2.7005090722025766
0.002645,2.695578428997913
0.00265,2.6906521441084106
0.002655,2.685730255863857
0.00266,2.6808128021397386
0.002665,2.675899820361132
0.00267,2.6709913475065643
0.002675,2.666087420111845
0.00268,2.6611880742738645
0.002685,2.6562933456543614
0.00269,2.651403269483664
0.002695,2.6465178805643936
0.0027,2.64163721327515
0.002705,2.636761301574155
0.00271,2.6318901790028746
0.002715,2.6270238786896063
0.00272,2.622162433353047
0.002725,2.6173058753058207
0.00273,2.6124542364579835
0.002735,2.607607548320505
0.00274,2.602765842008709
0.002745,2.597929148245702
0.00275,2.593097497365761
0.002755,2.5882709193177
0.00276,2.5834494436682105
0.002765,2.578633099605175
0.00277,2.573821915940948
0.002775,2.569015921115615
0.00278,2.5642151432002307
0.002785,2.559419609900018
0.00279,2.554629348557554
0.002795,2.5498443861559226
0.0028,2.545064749321844
0.002805,2.540290464328779
0.00281,2.5355215571000107
0.002815,2.530758053211696
0.00282,2.5259999778958955
0.002825,2.521247356043581
0.00283,2.516500212207616
0.002835,2.5117585706057106
0.00284,2.5070224551233578
0.002845,2.5022918893167407
0.00285,2.4975668964156195
0.002855,2.492847499326196
0.00286,2.488133720633948
0.002865,2.4834255826064515
0.00287,2.4787231071961733
0.002875,2.47402631604324
0.00288,2.469335230478189
0.002885,2.464649871524696
0.00289,2.459970259902276
0.002895,2.455296416028971
0.0029,2.450628360024007
0.002905,2.445966111710437
0.00291,2.4413096906177563
0.002915,2.436659115984501
0.00292,2.4320144067608256
0.002925,2.427375581611054
0.00293,2.422742658916218
0.002935,2.4181156567765707
0.00294,2.413494593014077
0.002945,2.4088794851748934
0.00295,2.4042703505318124
0.002955,2.399667206086704
0.00296,2.3950700685729265
0.002965,2.3904789544577207
0.00297,2.3858938799445832
0.002975,2.3813148609756265
0.00298,2.37674191323391
0.002985,2.37217505214576
0.00299,2.367614292883072
0.002995,2.3630596503655834
0.003,2.358511139263141
0.003005,2.3539687739979414
0.00301,2.349432568746757
0.003015,2.3449025374431427
0.00302,2.3403786937796247
0.003025,2.3358610512098728
0.00303,2.331349622950851
0.003035,2.3268444219849576
0.00304,2.322345461062141
0.003045,2.3178527527020027
0.00305,2.3133663091958807
0.003055,2.308886142608917
0.00306,2.304412264782109
0.003065,2.299944687334342
0.00307,2.295483421664408
0.003075,2.2910284789530087
0.00308,2.2865798701647337
0.003085,2.282137606050035
0.00309,2.277701697147176
0.003095,2.2732721537841707
0.0031,2.268848986080702
0.003105,2.264432203950032
0.00311,2.2600218171008795
0.003115,2.2556178350393097
0.00312,2.2512202670705816
0.003125,2.2468291223009973
0.00313,2.2424444096397287
0.003135,2.238066137800631
0.00314,2.2336943153040427
0.003145,2.2293289504785694
0.00315,2.224970051462853
0.003155,2.220617626207328
0.00316,2.216271682475961
0.003165,2.2119322278479783
0.00317,2.2075992697195783
0.003175,2.203272815305629
0.00318,2.198952871641354
0.003185,2.194639445584003
0.00319,2.1903325438145087
0.003195,2.186032172839131
0.0032,2.1817383389910843
0.003205,2.177451048432159
0.00321,2.173170307154322
0.003215,2.168896120981307
0.00322,2.1646284955701924
0.003225,2.1603674364129684
0.00323,2.156112948838082
0.003235,2.1518650380119846
0.00324,2.1476237089406496
0.003245,2.1433889664710923
0.00325,2.139160815292869
0.003255,2.134939259939567
0.00326,2.130724304790277
0.003265,2.1265159540710648
0.00327,2.1223142118564184
0.003275,2.118119082070691
0.00328,2.11393056848953
0.003285,2.109748674741291
0.00329,2.105573404308448
0.003295,2.1014047605289843
0.0033,2.097242746597774
0.003305,2.093087365567956
0.00331,2.0889386203522884
0.003315,2.084796513724505
0.00332,2.0806610483206467
0.003325,2.076532226640388
0.00333,2.0724100510483536
0.003335,2.0682945237754264
0.00334,2.0641856469200346
0.003345,2.060083422449438
0.00335,2.0559878522010044
0.003355,2.051898937883464
0.00336,2.0478166810781664
0.003365,2.0437410832403216
0.00337,2.039672145700227
0.003375,2.035609869664494
0.00338,2.031554256217254
0.003385,2.0275053063213613
0.00339,2.023463020819583
0.003395,2.0194274004357813
0.0034,2.0153984457760825
0.003405,2.0113761573300404
0.00341,2.0073605354717867
0.003415,2.003351580461174
0.00342,1.999349292444909
0.003425,1.9953536714576745
0.00343,1.9913647174232456
0.003435,1.987382430155592
0.00344,1.9834068093599744
0.003445,1.9794378546340337
0.00345,1.975475565468865
0.003455,1.971519941250087
0.00346,1.967570981258904
0.003465,1.9636286846731543
0.00347,1.9596930505683523
0.003475,1.9557640779187235
0.00348,1.9518417655982283
0.003485,1.94792611238158
0.00349,1.9440171169452487
0.003495,1.9401147778684664
0.0035,1.9362190936342123
0.003505,1.932330062630201
0.00351,1.928447683149853
0.003515,1.924571953393263
0.00352,1.9207028714681595
0.003525,1.9168404353908528
0.00353,1.9129846430871773
0.003535,1.9091354923934325
0.00354,1.905292981057299
0.003545,1.901457106738767
0.00355,1.8976278670110427
0.003555,1.893805259361455
0.00356,1.8899892811923489
0.003565,1.8861799298219744
0.00357,1.882377202485372
0.003575,1.87858109633524
